# temperature (K),delta c66/c66 (1e-5)
1.574331914893617013e+00,-4.167798403994440903e+00
1.574598076923077183e+00,-4.163451049235016299e+00
1.574756363636363732e+00,-4.158410384293151907e+00
1.574861403508772018e+00,-4.153900563938495161e+00
1.575018333333333409e+00,-4.148444724903113112e+00
1.575174603174603227e+00,-4.141894282809905903e+00
1.575382089552238796e+00,-4.138662018359577921e+00
1.575537142857142747e+00,-4.137482104780323411e+00
1.575691780821917964e+00,-4.134389979523321657e+00
1.575794666666666677e+00,-4.132840809108356162e+00
1.576000000000000068e+00,-4.131588372721415325e+00
1.576153658536585622e+00,-4.128846679096069394e+00
1.576358139534884018e+00,-4.124515546576472680e+00
1.576511235955055934e+00,-4.123671526357821193e+00
1.576664130434782374e+00,-4.122835373822602456e+00
1.576816842105263072e+00,-4.119165061602838129e+00
1.577022680412371036e+00,-4.115814289969195627e+00
1.577277551020408231e+00,-4.111678966067776386e+00
1.577583673469387993e+00,-4.108126238581849776e+00
1.577991836734693676e+00,-4.101618189357948197e+00
1.578297959183673216e+00,-4.098500803125318726e+00
1.578604081632653200e+00,-4.092177423032029360e+00
1.578808163265305931e+00,-4.088187868067365116e+00
1.579114285714285915e+00,-4.083009241165287406e+00
1.579420408163265899e+00,-4.078141157063820188e+00
1.579828571428571582e+00,-4.070662706646691831e+00
1.580034693877551133e+00,-4.068173731445378749e+00
1.580340816326530451e+00,-4.062581033521732721e+00
1.580646938775510213e+00,-4.057535156504589402e+00
1.580851020408163388e+00,-4.054543132277965256e+00
1.581106185567010325e+00,-4.049861529614648958e+00
1.581415463917525743e+00,-4.047485141379977946e+00
1.581725773195876261e+00,-4.044236577291128398e+00
1.582035051546391902e+00,-4.039857734254939103e+00
1.582344329896907320e+00,-4.036915909620526932e+00
1.582552577319587650e+00,-4.035788284440535278e+00
1.582811458333333476e+00,-4.035192171485324053e+00
1.583123958333333192e+00,-4.034595463241504198e+00
1.583436458333333130e+00,-4.034960079398229205e+00
1.583853124999999862e+00,-4.031695360401332806e+00
1.584165625000000022e+00,-4.027119800719475506e+00
1.584478124999999737e+00,-4.024243081653587240e+00
1.584738947368421025e+00,-4.020465562647411950e+00
1.585054736842105072e+00,-4.016934032876698701e+00
1.585319148936170430e+00,-4.016946136004456491e+00
1.585744680851063793e+00,-4.013286542170453330e+00
1.586116129032258515e+00,-4.006900854859537731e+00
1.586438709677419068e+00,-4.004994804192262947e+00
1.586761290322580509e+00,-4.002821868881117240e+00
1.587083870967741950e+00,-4.001021530358082501e+00
1.587513978494623057e+00,-3.997718492026230308e+00
1.587944086021505274e+00,-3.995752707219624611e+00
1.588266666666666271e+00,-3.993624320153486895e+00
1.588589247311827934e+00,-3.991377551387381040e+00
1.588804301075268821e+00,-3.989663166104870484e+00
1.589126881720429818e+00,-3.987716310513974793e+00
1.589449462365591259e+00,-3.984219643981035119e+00
1.589931914893617293e+00,-3.980723428928198082e+00
1.590251063829787093e+00,-3.978204190332561119e+00
1.590572826086956715e+00,-3.977186479439128064e+00
1.590736263736263867e+00,-3.975329834237258275e+00
1.591013333333333168e+00,-3.972095978258284532e+00
1.591289887640449319e+00,-3.967748749820659171e+00
1.591570454545454538e+00,-3.964319044751666965e+00
1.591851724137931301e+00,-3.962100532625481453e+00
1.592076470588235315e+00,-3.960066508687791753e+00
1.592372093023255664e+00,-3.958266352551596867e+00
1.592542352941176409e+00,-3.956197395747798495e+00
1.592832142857142808e+00,-3.953379190610408322e+00
1.593127710843373235e+00,-3.948640610458902689e+00
1.593546341463414562e+00,-3.945151644396506896e+00
1.593848148148148125e+00,-3.943172432810261974e+00
1.594087341772151944e+00,-3.941250791400825015e+00
1.594215189873417815e+00,-3.940305955931751924e+00
1.594594936708860766e+00,-3.938105622218736723e+00
1.595101265822784775e+00,-3.931791899825763714e+00
1.595860759493670900e+00,-3.925520931483651221e+00
1.596496202531645370e+00,-3.922391126604432454e+00
1.597003896103895926e+00,-3.919022228410566466e+00
1.597460526315789497e+00,-3.914567880110736198e+00
1.598118421052631577e+00,-3.909642957488403070e+00
1.598714666666666728e+00,-3.908764939623098122e+00
1.599114666666666906e+00,-3.906117143752812382e+00
1.600048000000000137e+00,-3.899714502684190620e+00
1.600581333333333411e+00,-3.892021034006234892e+00
1.601039473684210623e+00,-3.883134712965109259e+00
1.601284615384615639e+00,-3.877809526313325428e+00
1.601468354430379826e+00,-3.873661944450950578e+00
1.601901250000000276e+00,-3.867307440512928629e+00
1.602190361445782640e+00,-3.860795355251776861e+00
1.602609523809523928e+00,-3.855480814314184990e+00
1.602966666666666429e+00,-3.850749610834013126e+00
1.603204761904761799e+00,-3.848645038298210252e+00
1.603495294117647019e+00,-3.846239554977889163e+00
1.603834482758621061e+00,-3.844604685389764853e+00
1.604231818181818037e+00,-3.838123286074505813e+00
1.604511235955055959e+00,-3.833539156382266722e+00
1.604676666666666529e+00,-3.831134883425471038e+00
1.604894565217391378e+00,-3.826188176211848813e+00
1.605170329670330132e+00,-3.819433115315107763e+00
1.605389010989010767e+00,-3.816196994494251093e+00
1.605718681318681451e+00,-3.813297956898722418e+00
1.606158241758241623e+00,-3.811998370521169299e+00
1.606430434782608607e+00,-3.810702360873195360e+00
1.606701075268817336e+00,-3.808548165425441390e+00
1.607023655913978555e+00,-3.805055024727446167e+00
1.607290425531914480e+00,-3.803488236502573727e+00
1.607658947368421298e+00,-3.801902672982034659e+00
1.608079999999999954e+00,-3.798739481108910798e+00
1.608395789473684001e+00,-3.794840746516352947e+00
1.608656249999999899e+00,-3.790141280463354967e+00
1.608916494845360701e+00,-3.787016502793908224e+00
1.609126315789473516e+00,-3.782874222666886332e+00
1.609547368421052838e+00,-3.778071870184422032e+00
1.609917021276595417e+00,-3.774898778757989071e+00
1.610236170212766327e+00,-3.772258978683992847e+00
1.610661702127659467e+00,-3.771310763781142050e+00
1.610927368421052552e+00,-3.770506730671667306e+00
1.611193617021276614e+00,-3.768531633706513340e+00
1.611512765957446858e+00,-3.764878920689288311e+00
1.611831914893616879e+00,-3.762609578702555524e+00
1.612149999999999972e+00,-3.760541318970174629e+00
1.612415789473684136e+00,-3.756628983420077894e+00
1.612731578947368627e+00,-3.752481229386143369e+00
1.612942105263157844e+00,-3.748611962631557049e+00
1.613257894736842113e+00,-3.742342141167923408e+00
1.613573684210526160e+00,-3.737562730046185777e+00
1.613889473684210651e+00,-3.733533826072080508e+00
1.614364893617021179e+00,-3.730484643071809714e+00
1.614628421052631602e+00,-3.727427436314152409e+00
1.614944210526315649e+00,-3.725323002444502762e+00
1.615259999999999696e+00,-3.723431986928504855e+00
1.615520833333333073e+00,-3.720881316410557638e+00
1.615833333333333455e+00,-3.715396606009802927e+00
1.616201052631578872e+00,-3.707257517101860245e+00
1.616465957446808543e+00,-3.701486629847551502e+00
1.616732258064516037e+00,-3.695647892941180235e+00
1.617054838709677478e+00,-3.688521160235313623e+00
1.617377419354838697e+00,-3.681472696394011201e+00
1.617699999999999916e+00,-3.675880710212811486e+00
1.618130107526881689e+00,-3.666770149049006999e+00
1.618452688172042908e+00,-3.661561131573132677e+00
1.618775268817204793e+00,-3.657868516399440217e+00
1.618936956521739523e+00,-3.656862844543034896e+00
1.619261956521738988e+00,-3.654586005145239014e+00
1.619588043478261019e+00,-3.651284754745209860e+00
1.619911956521738583e+00,-3.646123001492858950e+00
1.620238043478261059e+00,-3.640494740182633748e+00
1.620564130434782646e+00,-3.634868021807678318e+00
1.620945161290322512e+00,-3.630375053121468909e+00
1.621325000000000127e+00,-3.628191339192291753e+00
1.621759782608695355e+00,-3.624861958822156893e+00
1.622084782608695930e+00,-3.620420454728945359e+00
1.622410869565217295e+00,-3.617979230972853344e+00
1.622736956521739105e+00,-3.616135346362217451e+00
1.623008602150537438e+00,-3.617062085019974393e+00
1.623280434782608861e+00,-3.616325413292029278e+00
1.623606521739130448e+00,-3.614021255428366608e+00
1.624149999999999983e+00,-3.608353222044929254e+00
1.624526881720429916e+00,-3.601754681231553512e+00
1.624849462365591579e+00,-3.600983625263492804e+00
1.625172043010752576e+00,-3.598659814569585169e+00
1.625444565217391224e+00,-3.594623641160272776e+00
1.625770652173913255e+00,-3.591662580643100622e+00
1.626040860215053785e+00,-3.589344012385959015e+00
1.626415957446808669e+00,-3.585496873908599724e+00
1.626735106382978913e+00,-3.583445736945587434e+00
1.626997894736841976e+00,-3.585767871419996311e+00
1.627313684210526246e+00,-3.586556713474244873e+00
1.627629473684210515e+00,-3.583301590352133914e+00
1.627945263157894340e+00,-3.578794182651817923e+00
1.628366315789473884e+00,-3.573592033817436509e+00
1.628682105263157709e+00,-3.570636649364432369e+00
1.628997894736841756e+00,-3.564988037361703554e+00
1.629153125000000202e+00,-3.561580724481078875e+00
1.629410309278350510e+00,-3.558193256687224526e+00
1.629719587628866151e+00,-3.555690242751975205e+00
1.630028865979381125e+00,-3.556754747672768779e+00
1.630487755102040914e+00,-3.558282957217403730e+00
1.630745360824742196e+00,-3.556950546810150549e+00
1.631054639175257615e+00,-3.553365686833849235e+00
1.631260824742268190e+00,-3.550529215325204824e+00
1.631570103092783608e+00,-3.548122477638409045e+00
1.631879381443299026e+00,-3.543820518276629805e+00
1.632238775510203910e+00,-3.539515159582854675e+00
1.632544897959183672e+00,-3.534216178532337160e+00
1.632851020408163212e+00,-3.526607740194603657e+00
1.633106060606060783e+00,-3.518964585840492099e+00
1.633361224489795704e+00,-3.513086022910404616e+00
1.633617525773195744e+00,-3.506539182775257224e+00
1.633877083333333147e+00,-3.503456365401456551e+00
1.634293749999999656e+00,-3.504389657274267211e+00
1.634606249999999816e+00,-3.498292899153218727e+00
1.634918749999999976e+00,-3.493940263050868467e+00
1.635075257731958720e+00,-3.492336837381086578e+00
1.635487628865979426e+00,-3.486252920711361725e+00
1.635796907216494844e+00,-3.481956362586224873e+00
1.636209278350515550e+00,-3.478183125205003279e+00
1.636518556701030969e+00,-3.475101560581765447e+00
1.636827835051546387e+00,-3.470378486192396750e+00
1.637085714285714477e+00,-3.466723512243778504e+00
1.637343298969071936e+00,-3.461101273926875610e+00
1.637652577319587577e+00,-3.457059959183466979e+00
1.637961855670102995e+00,-3.455119933737874405e+00
1.638374226804123701e+00,-3.450973520436360076e+00
1.638889690721649695e+00,-3.444708919192744023e+00
1.639146938775510209e+00,-3.440703711355432404e+00
1.639405154639175244e+00,-3.435495483467723155e+00
1.639714432989690440e+00,-3.429646658956031935e+00
1.640023711340206303e+00,-3.422611557322315257e+00
1.640436082474226787e+00,-3.410440019217397811e+00
1.640691836734693654e+00,-3.402094610895440852e+00
1.640997959183673416e+00,-3.396785442502969321e+00
1.641202040816326368e+00,-3.393149613490294758e+00
1.641508163265306353e+00,-3.386180443523126193e+00
1.641814285714285893e+00,-3.382036348978618712e+00
1.642120408163264988e+00,-3.378140263687509304e+00
1.642528571428571338e+00,-3.370038357149239161e+00
1.642834693877551100e+00,-3.366600592569066741e+00
1.643140816326530418e+00,-3.366237156537423836e+00
1.643344897959183815e+00,-3.364214191824887124e+00
1.643598989898990004e+00,-3.360832728286471394e+00
1.643849999999999589e+00,-3.355689137758318452e+00
1.644250000000000211e+00,-3.345501344499096419e+00
1.644549999999999734e+00,-3.339535602518343360e+00
1.644850000000000145e+00,-3.335178548901798656e+00
1.645150000000000112e+00,-3.329405902995446809e+00
1.645349999999999868e+00,-3.325886489660853762e+00
1.645650000000000057e+00,-3.323204706066722469e+00
1.645950000000000246e+00,-3.317658687222717617e+00
1.646349999999999980e+00,-3.310995102881648222e+00
1.646649999999999725e+00,-3.306513487591244527e+00
1.646950000000000580e+00,-3.299648497913692857e+00
1.647200000000000220e+00,-3.294593932205214237e+00
1.647450000000000081e+00,-3.293623318746241591e+00
1.647750000000000270e+00,-3.291420469185468711e+00
1.648050000000000015e+00,-3.288513627448898191e+00
1.648449999999999971e+00,-3.284488675193922624e+00
1.648750000000000382e+00,-3.282497034346389952e+00
1.649049999999999683e+00,-3.281795895666307139e+00
1.649250000000000105e+00,-3.279257232205447625e+00
1.649550000000000516e+00,-3.276773885484134841e+00
1.649849999999999817e+00,-3.272219068536493580e+00
1.650149999999999784e+00,-3.270828348270081065e+00
1.650549999999999962e+00,-3.268891879839833425e+00
1.650849999999999707e+00,-3.267599988258427235e+00
1.651150000000000118e+00,-3.265058727986394516e+00
1.651350000000000096e+00,-3.263377374216633431e+00
1.651649999999999618e+00,-3.259156670113090293e+00
1.651950000000000252e+00,-3.253129884351552370e+00
1.652350000000000207e+00,-3.249599022556131978e+00
1.652649999999999952e+00,-3.247343291257146269e+00
1.652950000000000141e+00,-3.245090211954945403e+00
1.653200000000000003e+00,-3.242131360204746571e+00
1.653450000000000086e+00,-3.240379444523858510e+00
1.653750000000000275e+00,-3.237878470530025865e+00
1.654050000000000242e+00,-3.235599748834877776e+00
1.654449999999999976e+00,-3.231946874328944119e+00
1.654749999999999943e+00,-3.230446102854335422e+00
1.655049999999999688e+00,-3.227005938857478107e+00
1.655249999999999666e+00,-3.224430041587132756e+00
1.655550000000000743e+00,-3.220719821326955667e+00
1.655849999999999822e+00,-3.217178988246898186e+00
1.656150000000000011e+00,-3.213308206084950491e+00
1.656549999999999967e+00,-3.208139299569227276e+00
1.656849999999999934e+00,-3.204784724089932091e+00
1.657150000000000345e+00,-3.201616100186659430e+00
1.657350000000000101e+00,-3.197997419267272434e+00
1.657649999999999846e+00,-3.190972439150237427e+00
1.657950000000000257e+00,-3.184871050263091696e+00
1.658349999999999991e+00,-3.176287249493801035e+00
1.658650000000000180e+00,-3.169926238336319813e+00
1.658950000000000369e+00,-3.162512089605738819e+00
1.659202020202020122e+00,-3.158134923914206027e+00
1.659404040404040437e+00,-3.155057915948913383e+00
1.659707070707071130e+00,-3.149706306921217003e+00
1.660010101010100714e+00,-3.144135660851555603e+00
1.660414141414141342e+00,-3.138863524785199921e+00
1.660717171717171814e+00,-3.135273671324546374e+00
1.661020202020201841e+00,-3.129626057342885126e+00
1.661273000000000000e+00,-3.126634815807464829e+00
1.661525252525252849e+00,-3.125211526197595457e+00
1.661828282828282655e+00,-3.122505775043975085e+00
1.662131313131313348e+00,-3.117266723525859096e+00
1.662535353535353311e+00,-3.112381541303597565e+00
1.662838383838384004e+00,-3.105338774860935569e+00
1.663090816326530552e+00,-3.099065351533363710e+00
1.663294897959183727e+00,-3.096116684667574503e+00
1.663601020408163489e+00,-3.093248619766437280e+00
1.664009183673469616e+00,-3.087121630876670686e+00
1.664417346938775522e+00,-3.079905524505820225e+00
1.664723469387755284e+00,-3.074461878844439333e+00
1.665029591836735046e+00,-3.069317630021103582e+00
1.665284848484848368e+00,-3.064767927817737991e+00
1.665539795918367538e+00,-3.059484303006522410e+00
1.665845918367347300e+00,-3.054707480370462580e+00
1.666152040816326396e+00,-3.050007009153033799e+00
1.666560204081632746e+00,-3.042091019475591462e+00
1.666866326530612064e+00,-3.036617228259040679e+00
1.667122680412371327e+00,-3.032429532974432185e+00
1.667328865979381680e+00,-3.029211859706578913e+00
1.667638144329896877e+00,-3.024035921062688814e+00
1.667947422680412295e+00,-3.020491196343436435e+00
1.668462886597938288e+00,-3.015061982829813303e+00
1.668772164948453485e+00,-3.011367564608424807e+00
1.669029591836734827e+00,-3.009306110941412982e+00
1.669335714285714145e+00,-3.006792279723631722e+00
1.669539795918367098e+00,-3.005426764981359966e+00
1.669845918367347082e+00,-3.004063660747582354e+00
1.670152040816326622e+00,-3.001218289493655433e+00
1.670560204081632749e+00,-2.992889708326593290e+00
1.670866326530612289e+00,-2.987971204073896825e+00
1.671172448979591607e+00,-2.983192912164728039e+00
1.671427272727272761e+00,-2.979682370572473094e+00
1.671682653061224322e+00,-2.975369121511154180e+00
1.672090816326530671e+00,-2.969084856547882012e+00
1.672498979591837021e+00,-2.961835627079421496e+00
1.672805102040816339e+00,-2.957748322395039597e+00
1.673061855670102904e+00,-2.955036702049593345e+00
1.673317346938775652e+00,-2.949977563438022976e+00
1.673521428571428826e+00,-2.946820561691362972e+00
1.673827551020407922e+00,-2.942304239802188803e+00
1.674133673469387684e+00,-2.938803434383507440e+00
1.674541836734693590e+00,-2.932885124083558281e+00
1.674847959183673352e+00,-2.928037659541039339e+00
1.675154081632653336e+00,-2.922002536243104132e+00
1.675409090909091070e+00,-2.917412277940331755e+00
1.675664285714285828e+00,-2.913973105872942782e+00
1.675970408163265368e+00,-2.909126561763255125e+00
1.676276530612244686e+00,-2.903887355152455552e+00
1.676684693877551036e+00,-2.898242015355665835e+00
1.676990816326531020e+00,-2.894662320343474704e+00
1.677243434343434147e+00,-2.892138237933739031e+00
1.677445454545454684e+00,-2.889124909275040842e+00
1.677748484848485155e+00,-2.884946305178126558e+00
1.678152525252524896e+00,-2.876491555421189616e+00
1.678556565656565969e+00,-2.864075558937962729e+00
1.678859595959595996e+00,-2.856624069232715168e+00
1.679162626262626024e+00,-2.850273740876005490e+00
1.679415000000000102e+00,-2.844506664916743421e+00
1.679667676767676809e+00,-2.838671192342581140e+00
1.679970707070706837e+00,-2.834004283064587959e+00
1.680273737373737530e+00,-2.831603539590448637e+00
1.680677777777777493e+00,-2.825229609787664131e+00
1.680980808080808409e+00,-2.821357976289784908e+00
1.681283838383838658e+00,-2.817853256114981164e+00
1.681485858585858528e+00,-2.813598293221762248e+00
1.681788888888888778e+00,-2.808441286961232741e+00
1.682091919191919693e+00,-2.804697260390769831e+00
1.682394949494949055e+00,-2.800098044169429201e+00
1.682798989898990127e+00,-2.794243515422350832e+00
1.683050000000000379e+00,-2.789773588864310039e+00
1.683302020202020133e+00,-2.786352207453674179e+00
1.683504040404040447e+00,-2.783114200060150090e+00
1.683807070707070919e+00,-2.777228806486529145e+00
1.684110101010100724e+00,-2.771846026669035901e+00
1.684514141414141353e+00,-2.767065163875353839e+00
1.684817171717171602e+00,-2.764102493569291941e+00
1.685120202020201630e+00,-2.761027087234375177e+00
1.685423232323232545e+00,-2.755218208164475602e+00
1.685625252525252193e+00,-2.752645768525304515e+00
1.685928282828282665e+00,-2.747782188921345181e+00
1.686231313131313136e+00,-2.739867163617621060e+00
1.686635353535353321e+00,-2.729488510633346632e+00
1.686938383838383793e+00,-2.721540668896170523e+00
1.687241414141414486e+00,-2.713998893485896069e+00
1.687494000000000050e+00,-2.708240631530390186e+00
1.687746464646464606e+00,-2.703134310561543074e+00
1.688150505050505457e+00,-2.695220506156268403e+00
1.688453535353535040e+00,-2.692273576925914291e+00
1.688857575757576113e+00,-2.686901798385960660e+00
1.689110204081632816e+00,-2.683770977478266762e+00
1.689416326530612356e+00,-2.679622113018556906e+00
1.689620408163265752e+00,-2.677054907881380785e+00
1.689926530612244626e+00,-2.670338311124866415e+00
1.690181443298969022e+00,-2.662387345456298071e+00
1.690593814432989950e+00,-2.654021457634490488e+00
1.690903092783504924e+00,-2.646020485095208929e+00
1.691212371134020787e+00,-2.640457692058576278e+00
1.691470408163265216e+00,-2.635816610633797463e+00
1.691727835051546336e+00,-2.630510652546374395e+00
1.692037113402061976e+00,-2.625627809419269987e+00
1.692346391752577395e+00,-2.620158982638055356e+00
