# temperature (K),delta c66/c66 (1e-5)
1.300063636363636421e+00,-4.126832480037545992e+00
1.300404545454545424e+00,-4.125921470083761200e+00
1.300745454545454427e+00,-4.124394843800526900e+00
1.301197727272727311e+00,-4.123056626042077788e+00
1.301594252873562896e+00,-4.122055949200618130e+00
1.302054022988505810e+00,-4.120499771129732203e+00
1.302341860465116241e+00,-4.119841341505030563e+00
1.302806976744185885e+00,-4.117895351006031213e+00
1.303098823529411643e+00,-4.116779386403046637e+00
1.303513095238095110e+00,-4.115780260545546909e+00
1.303870238095238276e+00,-4.114569714784439114e+00
1.304227380952380999e+00,-4.112699519631737743e+00
1.304584523809523722e+00,-4.111992837043962901e+00
1.305116470588235433e+00,-4.109486062531996886e+00
1.305406976744186265e+00,-4.107088104954187635e+00
1.305810344827586178e+00,-4.104384305584653170e+00
1.306102325581395496e+00,-4.101953492119049471e+00
1.306445454545454687e+00,-4.099130874175822115e+00
1.306617241379310457e+00,-4.097491956388634726e+00
1.307077011494252927e+00,-4.094024217833514001e+00
1.307414606741573060e+00,-4.092366019118461651e+00
1.307806666666666784e+00,-4.091227961166072902e+00
1.308251111111111031e+00,-4.090774783657397329e+00
1.308638461538461639e+00,-4.089804754029102263e+00
1.308917777777777625e+00,-4.088191746719008535e+00
1.309251111111111365e+00,-4.087039369561191293e+00
1.309525274725274580e+00,-4.084912919217305038e+00
1.309854945054945041e+00,-4.082015502592452272e+00
1.310127173913043563e+00,-4.080319796158244472e+00
1.310453260869565151e+00,-4.078445775768388515e+00
1.310617582417582305e+00,-4.077213619354334462e+00
1.311057142857142921e+00,-4.074606057258227665e+00
1.311330434782608689e+00,-4.073317106202296145e+00
1.311768478260869397e+00,-4.071121348061031320e+00
1.312094565217391207e+00,-4.069214579616136973e+00
1.312313043478260832e+00,-4.067893388955184264e+00
1.312476923076922875e+00,-4.067312570452144449e+00
1.312806593406593558e+00,-4.065674095054689019e+00
1.313080434782608608e+00,-4.063656203733487793e+00
1.313296739130434876e+00,-4.062060033204303977e+00
1.313731521739130326e+00,-4.059199871544658222e+00
1.314003296703296630e+00,-4.058376467166599610e+00
1.314332967032966870e+00,-4.057712016353849371e+00
1.314608888888888716e+00,-4.056805931398371534e+00
1.314885393258427015e+00,-4.055987701099344811e+00
1.315222471910112434e+00,-4.055377232765376760e+00
1.315727777777777829e+00,-4.054262115315291126e+00
1.316061111111110904e+00,-4.053577657262773748e+00
1.316450549450549179e+00,-4.053170115628505599e+00
1.316670329670329931e+00,-4.053262071247871745e+00
1.316999999999999948e+00,-4.053245596012757801e+00
1.317659340659340872e+00,-4.051129159038181271e+00
1.317989010989011112e+00,-4.048829608893869114e+00
1.318318681318681351e+00,-4.047737857819815765e+00
1.318648351648351813e+00,-4.045847814589467184e+00
1.318978021978022053e+00,-4.045037857383333879e+00
1.319417582417582446e+00,-4.042969832774153893e+00
1.319858241758241846e+00,-4.041931984603365002e+00
1.320297802197802239e+00,-4.039825275303054575e+00
1.320627472527472479e+00,-4.037975882178564291e+00
1.320789130434782743e+00,-4.036951255467769784e+00
1.321115217391304331e+00,-4.035416888351542219e+00
1.321441304347825918e+00,-4.033235498166860111e+00
1.321768478260869628e+00,-4.031532409713030951e+00
1.322094565217391215e+00,-4.029977268716859129e+00
1.322364516129032497e+00,-4.029028799457862853e+00
1.322630851063829827e+00,-4.028123461861186527e+00
1.322843617021276730e+00,-4.027906922058090977e+00
1.323162765957446751e+00,-4.027385117473821552e+00
1.323430107526881727e+00,-4.026930796650378674e+00
1.323802127659574390e+00,-4.024873694058960893e+00
1.324067368421052659e+00,-4.022933951263953922e+00
1.324383157894736707e+00,-4.020244719574425751e+00
1.324644791666666599e+00,-4.017915535917341963e+00
1.324957291666666537e+00,-4.015287936489503551e+00
1.325163541666666722e+00,-4.013199391145361616e+00
1.325476041666666660e+00,-4.010726812120162244e+00
1.325841052631578920e+00,-4.007556781314365324e+00
1.326156842105263189e+00,-4.004372552336479707e+00
1.326526041666666655e+00,-4.001777245374194436e+00
1.326788421052631506e+00,-3.999450997923142737e+00
1.327104210526315775e+00,-3.996926913555611804e+00
1.327367021276595782e+00,-3.994743088511934381e+00
1.327792553191489366e+00,-3.991645494805649452e+00
1.328111702127659610e+00,-3.989815512781412998e+00
1.328537234042553195e+00,-3.988167490143702754e+00
1.328697849462365577e+00,-3.987413324411871685e+00
1.329020430107526796e+00,-3.986306975024566324e+00
1.329343010752688237e+00,-3.985255046276797053e+00
1.329717021276595634e+00,-3.983308730455097812e+00
1.329984946236559162e+00,-3.981857592130511492e+00
1.330415053763440936e+00,-3.979263690848607204e+00
1.330630107526881822e+00,-3.978117079211021867e+00
1.331060215053763374e+00,-3.975893524121822065e+00
1.331276344086021579e+00,-3.975556194364080032e+00
1.331655434782608616e+00,-3.973798226738092687e+00
1.331981521739130425e+00,-3.972245247700448179e+00
1.332307608695652235e+00,-3.970464324381005827e+00
1.332582417582417689e+00,-3.967779279903878908e+00
1.332858888888889037e+00,-3.964809518312801817e+00
1.333192222222222334e+00,-3.963217929709506038e+00
1.333576404494382084e+00,-3.962441844883115571e+00
1.333913483146067502e+00,-3.961192292291336514e+00
1.334193181818181806e+00,-3.960126885826214860e+00
1.334475862068965624e+00,-3.958920343101616002e+00
1.334820689655172199e+00,-3.957223486401909796e+00
1.334991860465116309e+00,-3.956626553539130509e+00
1.335340697674418653e+00,-3.954304862054934588e+00
1.335689534883720997e+00,-3.952291441228502400e+00
1.336096470588235441e+00,-3.951481127320645381e+00
1.336452941176470510e+00,-3.950939143402921516e+00
1.336747619047619295e+00,-3.950608412556850801e+00
1.337043373493975951e+00,-3.949588531642777678e+00
1.337645783132530131e+00,-3.947632984735517603e+00
1.338007228915662816e+00,-3.945626887372644997e+00
1.338368674698795058e+00,-3.943736935742892413e+00
1.338731325301204533e+00,-3.941902767212647873e+00
1.339092771084337219e+00,-3.939776741438515639e+00
1.339639024390243849e+00,-3.938080127198187341e+00
1.340062650602409589e+00,-3.935980386571820144e+00
1.340665060240963768e+00,-3.934552091938480878e+00
1.341026506024096454e+00,-3.933586058838963506e+00
1.341445238095238190e+00,-3.932417431868485025e+00
1.341801190476190397e+00,-3.929758921054435028e+00
1.342221686746987830e+00,-3.927458164093374116e+00
1.342759523809523792e+00,-3.923764309975136921e+00
1.342877380952380850e+00,-3.923136330559682694e+00
1.343178313253012179e+00,-3.921948568679496372e+00
1.343539759036144643e+00,-3.919066719390491560e+00
1.344012941176470521e+00,-3.915940221381349229e+00
1.344365882352940966e+00,-3.913692372623771121e+00
1.344717647058823351e+00,-3.911637988793334575e+00
1.344890697674418378e+00,-3.910549987751942069e+00
1.345239534883720944e+00,-3.909064659114410034e+00
1.345464772727272829e+00,-3.907841342012067454e+00
1.345752873563218488e+00,-3.907107338423173371e+00
1.346151136363636258e+00,-3.906655694021744285e+00
1.346431460674157199e+00,-3.905108152645814013e+00
1.346766292134831566e+00,-3.902599444936782902e+00
1.347103370786516985e+00,-3.898787423807263064e+00
1.347329213483146049e+00,-3.897087503165250322e+00
1.347829999999999862e+00,-3.895571533253665120e+00
1.348221348314606605e+00,-3.893641790757648824e+00
1.348446067415730143e+00,-3.892321228486152140e+00
1.348727777777777970e+00,-3.891036233114036680e+00
1.349007865168539100e+00,-3.889685250309961262e+00
1.349347191011236013e+00,-3.887650794625584272e+00
1.349796629213483090e+00,-3.884133943017262336e+00
1.350133707865168509e+00,-3.883227145655713919e+00
1.350527272727272576e+00,-3.880469820199515585e+00
1.350811235955056144e+00,-3.878789770615906018e+00
1.351095454545454544e+00,-3.876882772588958304e+00
1.351436363636363547e+00,-3.875483432070702339e+00
1.351778409090909072e+00,-3.873684978678741508e+00
1.352285393258427115e+00,-3.870933717964304854e+00
1.352622471910112534e+00,-3.869497031518863484e+00
1.352845054945054803e+00,-3.868364367769625112e+00
1.353175824175824049e+00,-3.867161282304283354e+00
1.353615384615384887e+00,-3.865373571667128250e+00
1.354054945054945058e+00,-3.864583689740422656e+00
1.354494505494505452e+00,-3.864174271813510586e+00
1.354765217391304288e+00,-3.864001264406145886e+00
1.354982608695652235e+00,-3.863568860014250372e+00
1.355308695652174045e+00,-3.862084787855763590e+00
1.355686021505376315e+00,-3.861670239238809810e+00
1.356116129032258089e+00,-3.859596299500280825e+00
1.356388043478260697e+00,-3.857690982044112094e+00
1.356714130434782728e+00,-3.855663907378761746e+00
1.356931521739130675e+00,-3.854652702039101708e+00
1.357202150537634378e+00,-3.854574557963687198e+00
1.357524731182795819e+00,-3.853425932804693144e+00
1.357847311827957038e+00,-3.851012812121756834e+00
1.358221276595744653e+00,-3.848537712685297763e+00
1.358540425531914897e+00,-3.846267761668827667e+00
1.358803157894737046e+00,-3.844190491201690651e+00
1.359013684210526041e+00,-3.842351546848928656e+00
1.359275000000000233e+00,-3.840798991625506531e+00
1.359587499999999949e+00,-3.838865788643565757e+00
1.360004166666666903e+00,-3.837141741856469057e+00
1.360316666666666618e+00,-3.835053005519415414e+00
1.360526041666666686e+00,-3.833827064676248231e+00
1.360735106382978676e+00,-3.832831527558684392e+00
1.361054255319148920e+00,-3.830854667016184045e+00
1.361269148936170126e+00,-3.829162448755084824e+00
1.361801063829787273e+00,-3.826552529394644075e+00
1.362120212765957517e+00,-3.825402222417847220e+00
1.362439361702127538e+00,-3.824197787548111016e+00
1.362758510638297782e+00,-3.823208533685391153e+00
1.362971276595744685e+00,-3.822168738344605021e+00
1.363238709677419447e+00,-3.820753908851699521e+00
1.363506521739130450e+00,-3.818998603457122609e+00
1.363941304347825900e+00,-3.814808155266761425e+00
1.364267391304347932e+00,-3.811552685271076601e+00
1.364593478260869519e+00,-3.809081930016326556e+00
1.364865591397849576e+00,-3.807462173915512782e+00
1.365136956521739053e+00,-3.805931500853635630e+00
1.365680434782608810e+00,-3.801904095855601629e+00
1.366168817204300945e+00,-3.798959237013914692e+00
1.366598924731182718e+00,-3.796588735669485626e+00
1.366864893617021126e+00,-3.795361787231744888e+00
1.367077659574468251e+00,-3.794082196699616549e+00
1.367345161290322464e+00,-3.792961893861541256e+00
1.367667741935483905e+00,-3.792204313543536820e+00
1.368047826086956631e+00,-3.790472090194859422e+00
1.368482608695652081e+00,-3.789531522673262209e+00
1.368917391304347753e+00,-3.787769902196882921e+00
1.369134782608695700e+00,-3.786828240025491343e+00
1.369460869565217287e+00,-3.785225476542526835e+00
1.369786956521739096e+00,-3.784415690298359003e+00
1.370221739130434546e+00,-3.782322036889507189e+00
1.370547826086956578e+00,-3.780318120803468851e+00
1.370759574468085162e+00,-3.778860879699441622e+00
1.371023157894736721e+00,-3.777897605788315349e+00
1.371233684210526382e+00,-3.776845902775736619e+00
1.371493749999999734e+00,-3.775586641147048450e+00
1.371806249999999894e+00,-3.773942106172829991e+00
1.372222916666666848e+00,-3.772203474884819219e+00
1.372639583333333357e+00,-3.770237024116298574e+00
1.373005263157894840e+00,-3.767688431605834776e+00
1.373162500000000064e+00,-3.766581284821929998e+00
1.373475000000000001e+00,-3.764456687421825265e+00
1.373734020618556650e+00,-3.762577915191898548e+00
1.374146391752577134e+00,-3.760661489513806632e+00
1.374455670103092775e+00,-3.758427328443876725e+00
1.374764948453608637e+00,-3.756800842597158407e+00
1.375022448979591694e+00,-3.755663891587314396e+00
1.375229166666666503e+00,-3.754307109880421045e+00
1.375541666666666663e+00,-3.752732659053368280e+00
1.375854166666666600e+00,-3.750853598392736910e+00
1.376270833333333110e+00,-3.747713018359307480e+00
1.376583333333333492e+00,-3.745501195370824821e+00
1.376895833333333430e+00,-3.742882641445053782e+00
1.377104166666666574e+00,-3.741254293711143930e+00
1.377312500000000162e+00,-3.739043415239808432e+00
1.377625000000000099e+00,-3.735709844868525309e+00
1.378089690721649552e+00,-3.732421484552166824e+00
1.378346875000000082e+00,-3.730801908430394942e+00
1.378659374999999798e+00,-3.729620344328181236e+00
1.378920618556701116e+00,-3.727581380810225831e+00
1.379180208333333324e+00,-3.726152294764645490e+00
1.379492708333333484e+00,-3.723976486766956917e+00
1.379754736842105700e+00,-3.722544805201292384e+00
1.380281052631578964e+00,-3.721086038528922835e+00
1.380596842105263233e+00,-3.719210038719899192e+00
1.380912631578946836e+00,-3.716241152693810612e+00
1.381123157894736719e+00,-3.714361648745291955e+00
1.381438947368421211e+00,-3.711157144935575136e+00
1.381754736842105036e+00,-3.709046904724337512e+00
1.382175789473684357e+00,-3.705616921859178348e+00
1.382596842105263457e+00,-3.702160310912470109e+00
1.382912631578947282e+00,-3.700621271189826089e+00
1.383120618556701098e+00,-3.699446181658187172e+00
1.383485416666666579e+00,-3.697317509161205606e+00
1.383797916666666517e+00,-3.696213102085289748e+00
1.384214583333333470e+00,-3.694688650786550621e+00
1.384527083333333186e+00,-3.693067592048784764e+00
1.384943749999999918e+00,-3.690123744507692205e+00
1.385203092783505063e+00,-3.687883568869992246e+00
1.385359375000000171e+00,-3.686552379755833275e+00
1.385671874999999886e+00,-3.683545350981858313e+00
1.385984375000000268e+00,-3.681524083239183565e+00
1.386352631578947614e+00,-3.679785334518153039e+00
1.386668421052631883e+00,-3.678007107926662300e+00
1.386984210526315486e+00,-3.675931220623613438e+00
1.387194736842104925e+00,-3.674862394065895543e+00
1.387455208333333134e+00,-3.673691040351775960e+00
1.387767708333333516e+00,-3.672228767917072645e+00
1.388080208333333232e+00,-3.670468514487746248e+00
1.388395833333333274e+00,-3.667939681943216179e+00
1.388708333333333433e+00,-3.665265839722756880e+00
1.389020833333333371e+00,-3.662533303254254857e+00
1.389229166666666515e+00,-3.660636624704356468e+00
1.389541666666666453e+00,-3.657087855572739077e+00
1.389799999999999924e+00,-3.654262086833970358e+00
1.390212371134020408e+00,-3.650608066435180987e+00
1.390624742268041336e+00,-3.647784147507513453e+00
1.390934020618556755e+00,-3.646916601583715778e+00
1.391243298969072173e+00,-3.645908328586333624e+00
1.391552577319587813e+00,-3.645333572992302873e+00
1.391861855670103232e+00,-3.643105966501066995e+00
1.392274226804123716e+00,-3.640520887635472658e+00
1.392583505154639134e+00,-3.638418791588618806e+00
1.392892783505154330e+00,-3.635277584630062453e+00
1.393202061855670193e+00,-3.632600353356221667e+00
1.393511340206185611e+00,-3.630078900881192894e+00
1.393820618556700808e+00,-3.628028233577580863e+00
1.394129896907216670e+00,-3.626344670604009224e+00
1.394542268041237154e+00,-3.623882625444667660e+00
1.394851546391752350e+00,-3.622217108846430111e+00
1.395111458333333276e+00,-3.620991467861168545e+00
1.395319791666666420e+00,-3.619935116693442811e+00
1.395527083333333529e+00,-3.618910492688088176e+00
1.395839583333333467e+00,-3.616568678133931680e+00
1.396152083333333183e+00,-3.615317630968521989e+00
1.396413684210526363e+00,-3.614380938217823136e+00
1.396676595744681171e+00,-3.613140877983422872e+00
1.396941935483870800e+00,-3.611311609321061322e+00
1.397156989247311687e+00,-3.609960700249319476e+00
1.397423913043478239e+00,-3.608225786962934389e+00
1.397749999999999826e+00,-3.606084898555180551e+00
1.398130107526881938e+00,-3.604653062782571471e+00
1.398452688172043157e+00,-3.603269995272794013e+00
1.398775268817204154e+00,-3.601281846375072870e+00
1.398992473118279678e+00,-3.599816071347790469e+00
1.399261956521739236e+00,-3.599423909459850357e+00
1.399588043478260824e+00,-3.598346420067913609e+00
1.399969230769230855e+00,-3.596059690761772121e+00
1.400518681318681624e+00,-3.593000635991746794e+00
1.400794444444444675e+00,-3.590969710766556577e+00
1.401238888888888923e+00,-3.587829530331239525e+00
1.401630337078651811e+00,-3.585238545603095961e+00
1.402022727272727032e+00,-3.582600766319536501e+00
1.402477272727272739e+00,-3.578691301761014465e+00
1.402931818181818224e+00,-3.576044467226207058e+00
1.403161363636363790e+00,-3.574882484094202173e+00
1.403448275862068995e+00,-3.573498960236386690e+00
1.403793103448275792e+00,-3.571360918853388799e+00
1.404200000000000115e+00,-3.568234032105924047e+00
1.404608235294117602e+00,-3.565160996812475780e+00
1.404961176470588269e+00,-3.561786371836159315e+00
1.405310588235294089e+00,-3.559671171587798444e+00
1.405486046511627896e+00,-3.558768689055690437e+00
1.405894117647058961e+00,-3.557647038881926793e+00
1.406129411764705850e+00,-3.555730243334551233e+00
1.406598823529411790e+00,-3.552020231912572878e+00
1.406890697674418655e+00,-3.549671006881093938e+00
1.407122093023255749e+00,-3.548186487763052011e+00
1.407470930232558315e+00,-3.545880860965089365e+00
1.407703488372093137e+00,-3.543721129325064556e+00
1.408284883720930303e+00,-3.539114890257674784e+00
1.408575294117647037e+00,-3.537083223928395803e+00
1.408928235294117703e+00,-3.536401063154773983e+00
1.409223255813953468e+00,-3.536407473445752014e+00
1.409576190476190538e+00,-3.532917676936473406e+00
1.409816666666666718e+00,-3.530754269665794087e+00
1.410351807228915622e+00,-3.526830045231283073e+00
1.410653571428571285e+00,-3.525699048558259552e+00
1.411248809523809378e+00,-3.522164378793945616e+00
1.411488095238095264e+00,-3.520854315424381209e+00
1.411785542168674690e+00,-3.519386540991816581e+00
1.412266265060241111e+00,-3.517230552423954659e+00
1.412691463414634141e+00,-3.515483215024038710e+00
1.412996385542168776e+00,-3.514719918716206148e+00
1.413297619047618969e+00,-3.513914135528587224e+00
1.413719277108433703e+00,-3.511934007830177951e+00
1.414079518072289154e+00,-3.509921465626204995e+00
1.414561445783132587e+00,-3.506534052853830463e+00
1.415096428571428477e+00,-3.504820902664690596e+00
1.415334523809523848e+00,-3.503697431889801983e+00
1.415691666666666571e+00,-3.501814201978183050e+00
1.415929761904761719e+00,-3.500510492789684847e+00
1.416224705882352941e+00,-3.499202455334015749e+00
1.416749999999999954e+00,-3.496226522810430115e+00
1.417215116279069598e+00,-3.493943797435253629e+00
1.417505882352940727e+00,-3.492671984271030983e+00
1.417797674418604714e+00,-3.491785604311923752e+00
1.418090588235294325e+00,-3.490139576332967231e+00
1.418505952380952451e+00,-3.487804323405703677e+00
1.418745238095237893e+00,-3.486636319289813102e+00
1.419103571428571353e+00,-3.484273797969661413e+00
1.419341666666666724e+00,-3.482524542820158331e+00
1.419637647058823671e+00,-3.481098913305591402e+00
1.419929069767441598e+00,-3.479509520465587258e+00
1.420451724137930860e+00,-3.474490896619867097e+00
1.420796551724138101e+00,-3.470605983918505277e+00
1.421202325581395476e+00,-3.466508912311432766e+00
1.421432954545454486e+00,-3.465455614448349042e+00
1.421720689655172398e+00,-3.464158203898226596e+00
1.422005681818181877e+00,-3.463446479760381003e+00
1.422514606741573040e+00,-3.462558505272335996e+00
1.422851685393258458e+00,-3.461278937038974934e+00
1.423359090909090741e+00,-3.458405233206855112e+00
1.423644827586206585e+00,-3.457035619927856906e+00
1.424045454545454614e+00,-3.454738688260889479e+00
1.424499999999999877e+00,-3.452985808352299291e+00
1.424840909090909102e+00,-3.450721530587848473e+00
1.425181818181818105e+00,-3.448088843645038537e+00
1.425462921348314760e+00,-3.446581841376843425e+00
1.425687640449438298e+00,-3.445260629039004208e+00
1.426025842696629020e+00,-3.443009815209769897e+00
1.426362921348314439e+00,-3.441032653019670207e+00
1.426761363636363633e+00,-3.438560869372426332e+00
1.427102272727272636e+00,-3.436490043350535650e+00
