# B (T), A_asym/A(0)
7.000000000000000666e-02,-1.115334899958765613e-02
7.184028336821768335e-02,-1.139186473276919583e-02
7.368056673643536003e-02,-1.168900418935275853e-02
7.552085010465303672e-02,-1.198731629017303450e-02
7.736113347287071340e-02,-1.225073305774863029e-02
7.920141684108839009e-02,-1.247826642180882573e-02
8.104170020930608065e-02,-1.266386444122881948e-02
8.288198357752375733e-02,-1.279088901543550851e-02
8.472226694574143402e-02,-1.317990282143057489e-02
8.656255031395911070e-02,-1.346300343857505764e-02
8.840283368217678739e-02,-1.356494741833607666e-02
9.024311705039446407e-02,-1.348729213554482331e-02
9.208340041861214076e-02,-1.325230903720779271e-02
9.392368378682983132e-02,-1.289275661930416872e-02
9.576396715504750801e-02,-1.245990372400393974e-02
9.760425052326518469e-02,-1.195044955883443720e-02
9.944453389148286138e-02,-1.128305719870965375e-02
1.012848172597005381e-01,-1.049302563489219395e-02
1.031251006279182147e-01,-9.610455581650093060e-03
1.049653839961358914e-01,-8.636827593715677015e-03
1.068056673643535681e-01,-7.598423962679306046e-03
1.086459507325712448e-01,-6.541053417370019420e-03
1.104862341007889215e-01,-5.463588159678328844e-03
1.123265174690065982e-01,-4.390425409274422396e-03
1.141668008372242749e-01,-3.372850735834165455e-03
1.160070842054419515e-01,-2.411286477574455574e-03
1.178473675736596421e-01,-1.512529874608063143e-03
1.196876509418773188e-01,-6.926033410303803362e-04
1.215279343100949955e-01,5.612792084656702810e-05
1.233682176783126722e-01,7.205775405581409153e-04
1.252085010465303627e-01,1.270690540428995709e-03
1.270487844147480394e-01,1.714375262327530111e-03
1.288890677829657161e-01,2.049357212884847252e-03
1.307293511511833928e-01,2.261403869953132039e-03
1.325696345194010695e-01,2.373231194577870695e-03
1.344099178876187461e-01,2.395767783793661954e-03
1.362502012558364228e-01,2.301409712526412792e-03
1.380904846240540995e-01,2.085881781711505355e-03
1.399307679922717762e-01,1.764574135203962483e-03
1.417710513604894529e-01,1.342138207055543165e-03
1.436113347287071296e-01,8.476090063465642607e-04
1.454516180969248063e-01,3.081290109400741271e-04
1.472919014651424829e-01,-2.544795482733992298e-04
1.491321848333601596e-01,-8.157508844784433543e-04
1.509724682015778363e-01,-1.353657748634915425e-03
1.528127515697955130e-01,-1.876770999552937426e-03
1.546530349380131897e-01,-2.366679537579993980e-03
1.564933183062308664e-01,-2.797909017759270950e-03
1.583336016744485431e-01,-3.172654304499924419e-03
1.601738850426662197e-01,-3.468598525093216558e-03
1.620141684108838964e-01,-3.650901171924673949e-03
1.638544517791016009e-01,-3.693823151915212339e-03
1.656947351473192775e-01,-3.582545807482469691e-03
1.675350185155369542e-01,-3.329987453113243071e-03
1.693753018837546309e-01,-2.975372041446423550e-03
1.712155852519723076e-01,-2.541140244865778153e-03
1.730558686201899843e-01,-2.045556461369849467e-03
1.748961519884076610e-01,-1.516753176466803217e-03
1.767364353566253377e-01,-9.690955519344388036e-04
1.785767187248430143e-01,-3.961971610005804770e-04
1.804170020930607188e-01,1.611669039703108458e-04
1.822572854612783955e-01,6.541278922194646581e-04
1.840975688294960722e-01,1.043802153150198610e-03
1.859378521977137488e-01,1.288386237939979223e-03
1.877781355659314255e-01,1.359367047363747904e-03
1.896184189341491022e-01,1.249958710552779174e-03
1.914587023023667789e-01,9.494054312522050157e-04
1.932989856705844556e-01,4.726643615424318159e-04
1.951392690388021323e-01,-1.493551880437794094e-04
1.969795524070198089e-01,-8.922203870169757509e-04
1.988198357752374856e-01,-1.737258704577453877e-03
2.006601191434551623e-01,-2.647686761218074041e-03
2.025004025116728390e-01,-3.604247001344785921e-03
2.043406858798905157e-01,-4.603021577493528367e-03
2.061809692481081924e-01,-5.594752852498127357e-03
2.080212526163258691e-01,-6.533073712247092386e-03
2.098615359845435457e-01,-7.369509940977984550e-03
2.117018193527612224e-01,-8.065898703647786036e-03
2.135421027209788991e-01,-8.609860670334317997e-03
2.153823860891965758e-01,-9.022895507999036460e-03
2.172226694574142525e-01,-9.319717489856629150e-03
2.190629528256319292e-01,-9.527939393401302012e-03
2.209032361938496059e-01,-9.665585012662637407e-03
2.227435195620673103e-01,-9.733646088235032440e-03
2.245838029302849870e-01,-9.747751843937274910e-03
2.264240862985026637e-01,-9.745093040682082514e-03
2.282643696667203403e-01,-9.738390474205202429e-03
2.301046530349380170e-01,-9.730919553036071132e-03
2.319449364031556937e-01,-9.747196925411441559e-03
2.337852197713733704e-01,-9.787674781174583033e-03
2.356255031395910471e-01,-9.858865944764191869e-03
2.374657865078087238e-01,-9.948081077197034466e-03
2.393060698760264005e-01,-1.001158431671448842e-02
2.411463532442440771e-01,-1.003435328294551183e-02
2.429866366124617538e-01,-1.000755910878110486e-02
2.448269199806794305e-01,-9.905749678841557770e-03
2.466672033488971072e-01,-9.705220183888391139e-03
2.485074867171147839e-01,-9.422937026651142384e-03
2.503477700853324883e-01,-9.043357874340315558e-03
2.521880534535501095e-01,-8.548301869105674050e-03
2.540283368217678417e-01,-7.952585927819107864e-03
2.558686201899855184e-01,-7.262772127479013261e-03
2.577089035582031951e-01,-6.506563079130564878e-03
2.595491869264208717e-01,-5.733479214206903610e-03
2.613894702946385484e-01,-4.958405936536449017e-03
2.632297536628562251e-01,-4.222397794577328542e-03
2.650700370310739018e-01,-3.597970926584397565e-03
2.669103203992915785e-01,-3.096607361703936252e-03
2.687506037675092552e-01,-2.725118899796329357e-03
2.705908871357269319e-01,-2.495206763260063472e-03
2.724311705039446085e-01,-2.436398169801911890e-03
2.742714538721622852e-01,-2.533716184648712212e-03
2.761117372403799619e-01,-2.796461312840337055e-03
2.779520206085976386e-01,-3.224288204007387006e-03
2.797923039768153153e-01,-3.783231650230758306e-03
2.816325873450329920e-01,-4.451913727489266795e-03
2.834728707132506687e-01,-5.169592730836640969e-03
2.853131540814683453e-01,-5.877835143727840918e-03
2.871534374496860220e-01,-6.581942246646430190e-03
2.889937208179037542e-01,-7.258119849939262576e-03
2.908340041861213754e-01,-7.872219839257536475e-03
2.926742875543391076e-01,-8.405982656829591795e-03
2.945145709225567288e-01,-8.846564230644438781e-03
2.963548542907744610e-01,-9.182364053468188361e-03
2.981951376589920821e-01,-9.391233429564081053e-03
3.000354210272098143e-01,-9.492409837681847762e-03
3.018757043954274355e-01,-9.501028536915005415e-03
3.037159877636451677e-01,-9.438959523937379831e-03
3.055562711318627889e-01,-9.318229529383733820e-03
3.073965545000805211e-01,-9.139211391095665785e-03
3.092368378682981422e-01,-8.943134301080846171e-03
3.110771212365158744e-01,-8.759534547775282842e-03
3.129174046047334956e-01,-8.572702995681214314e-03
3.147576879729512278e-01,-8.374659636860067730e-03
3.165979713411688490e-01,-8.168980401265143673e-03
3.184382547093865812e-01,-7.958059373627543800e-03
3.202785380776042579e-01,-7.738700642716673551e-03
3.221188214458219345e-01,-7.504253741842842156e-03
3.239591048140396112e-01,-7.249794969659827636e-03
3.257993881822572879e-01,-6.956825154766152833e-03
3.276396715504749646e-01,-6.606798901876425635e-03
3.294799549186926413e-01,-6.175693863473282787e-03
3.313202382869103180e-01,-5.671208238139330803e-03
3.331605216551279947e-01,-5.123511465589906770e-03
3.350008050233456713e-01,-4.527209467870723855e-03
3.368410883915633480e-01,-3.897886691799138954e-03
3.386813717597810247e-01,-3.257693595791577405e-03
3.405216551279987014e-01,-2.636324108564173496e-03
3.423619384962163781e-01,-2.027274151361216446e-03
3.442022218644340548e-01,-1.460745334991211042e-03
3.460425052326517315e-01,-9.692190540835565402e-04
3.478827886008694081e-01,-5.734022720524247331e-04
3.497230719690870848e-01,-3.010596474907343742e-04
3.515633553373047615e-01,-1.670646359403248939e-04
3.534036387055224382e-01,-1.869111329315897266e-04
3.552439220737401149e-01,-3.549264758643556612e-04
3.570842054419577916e-01,-6.512920327081206471e-04
3.589244888101754682e-01,-1.047500736884531295e-03
3.607647721783931449e-01,-1.546218892309567192e-03
3.626050555466108216e-01,-2.132103478192106348e-03
3.644453389148284983e-01,-2.774164186783204759e-03
3.662856222830461750e-01,-3.458336151367098765e-03
3.681259056512638517e-01,-4.211162930682598761e-03
3.699661890194815284e-01,-4.990906096997568646e-03
3.718064723876992050e-01,-5.746592828748909795e-03
3.736467557559169372e-01,-6.454186217730238997e-03
3.754870391241346139e-01,-7.098907736949962646e-03
3.773273224923522906e-01,-7.681207710397690118e-03
3.791676058605699673e-01,-8.182963080182561674e-03
3.810078892287876440e-01,-8.608701478878265020e-03
3.828481725970053207e-01,-8.978504635628343361e-03
3.846884559652229973e-01,-9.308507948086630623e-03
3.865287393334406740e-01,-9.560509922164509705e-03
3.883690227016583507e-01,-9.687358780717013687e-03
3.902093060698760274e-01,-9.710110995498181380e-03
3.920495894380937041e-01,-9.614441452519786879e-03
3.938898728063113808e-01,-9.375231326402303986e-03
3.957301561745290575e-01,-9.008496176267536543e-03
3.975704395427467341e-01,-8.537134337440023882e-03
3.994107229109644108e-01,-7.988071125532120523e-03
4.012510062791820875e-01,-7.369168115178644125e-03
4.030912896473997642e-01,-6.674224658016800205e-03
4.049315730156174409e-01,-5.908051100871335691e-03
4.067718563838351176e-01,-5.107316479528355158e-03
4.086121397520527943e-01,-4.293255984319217441e-03
4.104524231202704709e-01,-3.479978974258482374e-03
4.122927064884881476e-01,-2.736266686033931705e-03
4.141329898567058243e-01,-2.126987709159298013e-03
4.159732732249235010e-01,-1.644179687808881418e-03
4.178135565931411777e-01,-1.300385234444863519e-03
4.196538399613588544e-01,-1.099887263723698608e-03
4.214941233295765310e-01,-1.043244766820998004e-03
4.233344066977942077e-01,-1.136421358223324574e-03
4.251746900660118844e-01,-1.388872309272889396e-03
4.270149734342295611e-01,-1.780517695170171768e-03
4.288552568024472378e-01,-2.283585656491630457e-03
4.306955401706649145e-01,-2.898022020543701820e-03
4.325358235388825912e-01,-3.578210452308937771e-03
4.343761069071002678e-01,-4.279045514242471072e-03
4.362163902753179445e-01,-4.986676034358767350e-03
4.380566736435356212e-01,-5.648284147828143767e-03
4.398969570117532979e-01,-6.232219687030892893e-03
4.417372403799710301e-01,-6.727936701504994184e-03
4.435775237481887068e-01,-7.127608732348305817e-03
4.454178071164063835e-01,-7.420039455311819299e-03
4.472580904846240601e-01,-7.605936536204594388e-03
4.490983738528417368e-01,-7.690397251752400035e-03
4.509386572210594135e-01,-7.635285170224251697e-03
4.527789405892770902e-01,-7.479403890086226865e-03
4.546192239574947669e-01,-7.265470277960249003e-03
4.564595073257124436e-01,-6.981864644993385043e-03
4.582997906939301203e-01,-6.631753734938401583e-03
4.601400740621477969e-01,-6.240825972307919266e-03
4.619803574303654736e-01,-5.798346112637915717e-03
4.638206407985831503e-01,-5.315146043662258464e-03
4.656609241668008270e-01,-4.806509795758007707e-03
4.675012075350185037e-01,-4.292206489203664356e-03
4.693414909032361804e-01,-3.789008356020386308e-03
4.711817742714538571e-01,-3.316907941235622877e-03
4.730220576396715337e-01,-2.859635854048644434e-03
4.748623410078892104e-01,-2.406056643889572903e-03
4.767026243761068871e-01,-1.975012603351606038e-03
4.785429077443245638e-01,-1.543032587226310284e-03
4.803831911125422405e-01,-1.095075460473772218e-03
4.822234744807599172e-01,-6.650678953403169492e-04
4.840637578489775938e-01,-2.782862231473153891e-04
4.859040412171952705e-01,6.581617033495265319e-05
4.877443245854129472e-01,3.654025907437957006e-04
4.895846079536306239e-01,6.286698867681521754e-04
4.914248913218483006e-01,8.806539199357196280e-04
4.932651746900659773e-01,1.119500948870695177e-03
4.951054580582836540e-01,1.333558429400894712e-03
4.969457414265013306e-01,1.515028172054574008e-03
4.987860247947190073e-01,1.636041011847405623e-03
5.006263081629367395e-01,1.694547174800461889e-03
5.024665915311543607e-01,1.689355882794061183e-03
5.043068748993719819e-01,1.631696113624863395e-03
5.061471582675897141e-01,1.528960466919119469e-03
5.079874416358074463e-01,1.399693922657250763e-03
5.098277250040250674e-01,1.252533219567025053e-03
5.116680083722427996e-01,1.083151284361222365e-03
5.135082917404605318e-01,8.962697576941183785e-04
5.153485751086781530e-01,6.947807481792767645e-04
5.171888584768957742e-01,4.536989625195430101e-04
5.190291418451135064e-01,1.793402622133008506e-04
5.208694252133312386e-01,-8.525102125072820162e-05
5.227097085815488597e-01,-3.082231333712491506e-04
5.245499919497664809e-01,-4.820890487602651382e-04
5.263902753179842131e-01,-6.211457735455242152e-04
5.282305586862019453e-01,-7.282367340343933251e-04
5.300708420544195665e-01,-8.153290277994844478e-04
5.319111254226371877e-01,-8.971561664723416360e-04
5.337514087908549199e-01,-9.810564466582168217e-04
5.355916921590726520e-01,-1.081987069840423341e-03
5.374319755272902732e-01,-1.178003215457162911e-03
5.392722588955078944e-01,-1.290992648312370723e-03
5.411125422637256266e-01,-1.478475241635540931e-03
5.429528256319433588e-01,-1.738662343551502761e-03
5.447931090001609800e-01,-2.048258132356271192e-03
5.466333923683786011e-01,-2.426141797055379312e-03
5.484736757365963333e-01,-2.897831850642962771e-03
5.503139591048140655e-01,-3.470907864635611444e-03
5.521542424730316867e-01,-4.124422721241634976e-03
5.539945258412493079e-01,-4.861386760047907950e-03
5.558348092094670401e-01,-5.665937293167245918e-03
5.576750925776847723e-01,-6.516162119958155211e-03
5.595153759459023934e-01,-7.378536241796338803e-03
5.613556593141200146e-01,-8.199137718014780016e-03
5.631959426823377468e-01,-8.986723926064366097e-03
5.650362260505554790e-01,-9.714563616607998012e-03
5.668765094187731002e-01,-1.031728553556513113e-02
5.687167927869907214e-01,-1.077497526196827086e-02
5.705570761552085646e-01,-1.109991932372323721e-02
5.723973595234261857e-01,-1.128769720214169332e-02
5.742376428916438069e-01,-1.133254259251873300e-02
5.760779262598614281e-01,-1.122546124390796408e-02
5.779182096280792713e-01,-1.098021355382024743e-02
5.797584929962968925e-01,-1.059259252010008936e-02
5.815987763645145137e-01,-1.008793515020757654e-02
5.834390597327321348e-01,-9.482954635652690242e-03
5.852793431009499781e-01,-8.805939313561670159e-03
5.871196264691675992e-01,-8.103784217702612175e-03
5.889599098373852204e-01,-7.381389858007660065e-03
5.908001932056028416e-01,-6.663655047354168429e-03
5.926404765738206848e-01,-5.969513976940433141e-03
5.944807599420383060e-01,-5.313841751101123709e-03
5.963210433102559271e-01,-4.719116231944766107e-03
5.981613266784735483e-01,-4.197677600562712760e-03
6.000016100466913915e-01,-3.743197910156148989e-03
6.018418934149090127e-01,-3.356295549316952193e-03
6.036821767831266339e-01,-3.043065273235753213e-03
6.055224601513442551e-01,-2.805230386026015977e-03
6.073627435195620983e-01,-2.646553772170461526e-03
6.092030268877797194e-01,-2.581494327367016024e-03
6.110433102559973406e-01,-2.610579046092148785e-03
6.128835936242151838e-01,-2.724484866763617150e-03
6.147238769924328050e-01,-2.922527830469878914e-03
6.165641603606504262e-01,-3.190937797023128079e-03
6.184044437288680474e-01,-3.529493615972761379e-03
6.202447270970858906e-01,-3.925284812074511173e-03
6.220850104653035118e-01,-4.365345453535258470e-03
6.239252938335211329e-01,-4.843511343244668796e-03
6.257655772017387541e-01,-5.353325159035857324e-03
6.276058605699565973e-01,-5.862874371593494380e-03
6.294461439381742185e-01,-6.333820707039652942e-03
6.312864273063918397e-01,-6.748585123149424339e-03
6.331267106746094608e-01,-7.069972770591461189e-03
6.349669940428273041e-01,-7.263829389282229140e-03
6.368072774110449252e-01,-7.322502996543106546e-03
6.386475607792625464e-01,-7.259837980297395230e-03
6.404878441474801676e-01,-7.080382389060836147e-03
6.423281275156980108e-01,-6.789368977132671269e-03
6.441684108839156320e-01,-6.401449709668075201e-03
6.460086942521332531e-01,-5.948391367086435823e-03
6.478489776203508743e-01,-5.440295472074074649e-03
6.496892609885687175e-01,-4.881305164426745502e-03
6.515295443567863387e-01,-4.283506460865534396e-03
6.533698277250039599e-01,-3.683573122826159282e-03
6.552101110932215811e-01,-3.099913581028331932e-03
6.570503944614394243e-01,-2.542792184729730526e-03
6.588906778296570455e-01,-2.034482998259652675e-03
6.607309611978746666e-01,-1.587058264185148065e-03
6.625712445660922878e-01,-1.207539502585635747e-03
6.644115279343101310e-01,-8.777707660887304779e-04
6.662518113025277522e-01,-6.002861754388678656e-04
6.680920946707453734e-01,-3.790592171803590415e-04
6.699323780389629945e-01,-2.145699246922835033e-04
6.717726614071808378e-01,-1.102462192279978983e-04
6.736129447753984589e-01,-6.463924861383267518e-05
6.754532281436160801e-01,-9.358847690358231138e-05
6.772935115118339233e-01,-2.011396726079770186e-04
6.791337948800515445e-01,-3.926654033718260080e-04
6.809740782482691657e-01,-7.027802715293174395e-04
6.828143616164867868e-01,-1.136258045847280849e-03
6.846546449847046301e-01,-1.672162517724697138e-03
6.864949283529222512e-01,-2.294144628217049692e-03
6.883352117211398724e-01,-2.986290676816001632e-03
6.901754950893574936e-01,-3.727184579912220814e-03
6.920157784575753368e-01,-4.481686618728683222e-03
6.938560618257929580e-01,-5.236729489658907902e-03
6.956963451940105791e-01,-5.972087550140324844e-03
6.975366285622282003e-01,-6.653261120072561860e-03
6.993769119304460435e-01,-7.257184883826726073e-03
7.012171952986636647e-01,-7.742911741499031338e-03
7.030574786668812859e-01,-8.102823549723209978e-03
7.048977620350989071e-01,-8.336181680409353659e-03
7.067380454033167503e-01,-8.422345463248751343e-03
7.085783287715343715e-01,-8.357112629473598120e-03
7.104186121397519926e-01,-8.180569152143610592e-03
7.122588955079696138e-01,-7.933140112964559565e-03
7.140991788761874570e-01,-7.629476145660747839e-03
7.159394622444050782e-01,-7.303601205496670738e-03
7.177797456126226994e-01,-7.002312594408408898e-03
7.196200289808403205e-01,-6.738798381963009669e-03
7.214603123490581638e-01,-6.526933015328481059e-03
7.233005957172757849e-01,-6.369462092101534946e-03
7.251408790854934061e-01,-6.272376582499197828e-03
7.269811624537110273e-01,-6.260582131114453275e-03
7.288214458219288705e-01,-6.328295583359391449e-03
7.306617291901464917e-01,-6.447730419988771666e-03
7.325020125583641128e-01,-6.606598783541272647e-03
7.343422959265817340e-01,-6.820713070607732284e-03
7.361825792947995772e-01,-7.062758890918718717e-03
7.380228626630171984e-01,-7.301826613940673449e-03
7.398631460312348196e-01,-7.533508521008107708e-03
7.417034293994524408e-01,-7.743859169308621448e-03
7.435437127676702840e-01,-7.903999953448089671e-03
7.453839961358879052e-01,-7.986473818579812450e-03
7.472242795041055263e-01,-7.973416588914417763e-03
7.490645628723233695e-01,-7.872879044547514277e-03
7.509048462405409907e-01,-7.692729412193914998e-03
7.527451296087586119e-01,-7.432120057655268973e-03
7.545854129769762331e-01,-7.102140808834772438e-03
7.564256963451940763e-01,-6.714192449669023274e-03
7.582659797134116975e-01,-6.266818127551741259e-03
7.601062630816293186e-01,-5.728082517917851627e-03
7.619465464498469398e-01,-5.111092087619147420e-03
7.637868298180647830e-01,-4.439739857604062256e-03
7.656271131862824042e-01,-3.738003686097892634e-03
7.674673965545000254e-01,-3.016734220554252895e-03
7.693076799227176465e-01,-2.293471173782573019e-03
7.711479632909354898e-01,-1.601270688308233450e-03
7.729882466591531109e-01,-9.651399420207963870e-04
7.748285300273707321e-01,-3.913774136957730494e-04
7.766688133955883533e-01,1.180252162661793176e-04
