# B (T), Viscosity (1e-5 Pa*s)
7.000000000000000666e-02,6.899228037881632858e-02
7.184028336821768335e-02,9.108632381428291569e-02
7.368056673643536003e-02,1.146061198184430002e-01
7.552085010465303672e-02,1.350918514919345614e-01
7.736113347287071340e-02,1.540920924343614495e-01
7.920141684108839009e-02,1.662513566090596251e-01
8.104170020930608065e-02,1.920006198178531021e-01
8.288198357752375733e-02,2.170228122103585455e-01
8.472226694574143402e-02,2.377585495411289884e-01
8.656255031395911070e-02,2.551512644193092982e-01
8.840283368217678739e-02,2.575121465427898104e-01
9.024311705039446407e-02,2.513948776038577582e-01
9.208340041861214076e-02,2.289152979157251799e-01
9.392368378682983132e-02,1.983950280764670837e-01
9.576396715504750801e-02,1.599153915082143218e-01
9.760425052326518469e-02,1.134940620561388364e-01
9.944453389148286138e-02,6.271595346942160365e-02
1.012848172597005381e-01,4.242480331465832075e-03
1.031251006279182147e-01,-5.687244941653801095e-02
1.049653839961358914e-01,-5.687244941653801095e-02
1.068056673643535681e-01,-5.687244941653801095e-02
1.086459507325712448e-01,-5.687244941653801095e-02
1.104862341007889215e-01,-5.687244941653801095e-02
1.123265174690065982e-01,-5.687244941653801095e-02
1.141668008372242749e-01,-5.687244941653801095e-02
1.160070842054419515e-01,-5.687244941653801095e-02
1.178473675736596421e-01,-5.687244941653801095e-02
1.196876509418773188e-01,-5.687244941653801095e-02
1.215279343100949955e-01,-5.687244941653801095e-02
1.233682176783126722e-01,-5.687244941653801095e-02
1.252085010465303627e-01,-5.687244941653801095e-02
1.270487844147480394e-01,-5.687244941653801095e-02
1.288890677829657161e-01,-5.687244941653801095e-02
1.307293511511833928e-01,-5.687244941653801095e-02
1.325696345194010695e-01,-5.687244941653801095e-02
1.344099178876187461e-01,-5.687244941653801095e-02
1.362502012558364228e-01,-5.687244941653801095e-02
1.380904846240540995e-01,-5.687244941653801095e-02
1.399307679922717762e-01,-5.687244941653801095e-02
1.417710513604894529e-01,-5.687244941653801095e-02
1.436113347287071296e-01,-5.687244941653801095e-02
1.454516180969248063e-01,-3.809661079880690554e-02
1.472919014651424829e-01,-1.775794875008088886e-02
1.491321848333601596e-01,-7.770986749024417052e-04
1.509724682015778363e-01,4.948417344592962114e-04
1.528127515697955130e-01,-9.959046883490901142e-03
1.546530349380131897e-01,-9.959046883490901142e-03
1.564933183062308664e-01,-9.959046883490901142e-03
1.583336016744485431e-01,-9.959046883490901142e-03
1.601738850426662197e-01,-9.959046883490901142e-03
1.620141684108838964e-01,-9.959046883490901142e-03
1.638544517791016009e-01,-9.959046883490901142e-03
1.656947351473192775e-01,-3.996032000790955899e-03
1.675350185155369542e-01,6.656236339664169457e-03
1.693753018837546309e-01,2.890143274930247197e-02
1.712155852519723076e-01,6.284218993502829753e-02
1.730558686201899843e-01,9.420028123581233870e-02
1.748961519884076610e-01,1.134893930666424078e-01
1.767364353566253377e-01,1.295870982950105554e-01
1.785767187248430143e-01,1.337810813573630797e-01
1.804170020930607188e-01,1.194994433138489437e-01
1.822572854612783955e-01,8.990277740855308342e-02
1.840975688294960722e-01,5.357322983427449670e-02
1.859378521977137488e-01,1.469021767552494695e-02
1.877781355659314255e-01,-3.044289474623722985e-02
1.896184189341491022e-01,-3.044289474623722985e-02
1.914587023023667789e-01,-3.044289474623722985e-02
1.932989856705844556e-01,-3.044289474623722985e-02
1.951392690388021323e-01,-3.044289474623722985e-02
1.969795524070198089e-01,-3.044289474623722985e-02
1.988198357752374856e-01,-3.044289474623722985e-02
2.006601191434551623e-01,-3.044289474623722985e-02
2.025004025116728390e-01,-3.044289474623722985e-02
2.043406858798905157e-01,-3.044289474623722985e-02
2.061809692481081924e-01,-3.044289474623722985e-02
2.080212526163258691e-01,-3.044289474623722985e-02
2.098615359845435457e-01,-3.044289474623722985e-02
2.117018193527612224e-01,-3.044289474623722985e-02
2.135421027209788991e-01,-3.044289474623722985e-02
2.153823860891965758e-01,-3.044289474623722985e-02
2.172226694574142525e-01,-3.044289474623722985e-02
2.190629528256319292e-01,-3.044289474623722985e-02
2.209032361938496059e-01,-2.569105080525977552e-02
2.227435195620673103e-01,-1.525717128002829562e-02
2.245838029302849870e-01,-1.525717128002829562e-02
2.264240862985026637e-01,-1.525717128002829562e-02
2.282643696667203403e-01,-1.525717128002829562e-02
2.301046530349380170e-01,-1.525717128002829562e-02
2.319449364031556937e-01,-1.525717128002829562e-02
2.337852197713733704e-01,-1.525717128002829562e-02
2.356255031395910471e-01,-1.525717128002829562e-02
2.374657865078087238e-01,-1.525717128002829562e-02
2.393060698760264005e-01,-1.525717128002829562e-02
2.411463532442440771e-01,-1.525717128002829562e-02
2.429866366124617538e-01,-1.525717128002829562e-02
2.448269199806794305e-01,-1.525717128002829562e-02
2.466672033488971072e-01,-1.525717128002829562e-02
2.485074867171147839e-01,-1.525717128002829562e-02
2.503477700853324883e-01,-1.525717128002829562e-02
2.521880534535501095e-01,-1.525717128002829562e-02
2.540283368217678417e-01,-1.525717128002829562e-02
2.558686201899855184e-01,-1.525717128002829562e-02
2.577089035582031951e-01,-1.525717128002829562e-02
2.595491869264208717e-01,-1.525717128002829562e-02
2.613894702946385484e-01,-1.525717128002829562e-02
2.632297536628562251e-01,-1.525717128002829562e-02
2.650700370310739018e-01,-1.525717128002829562e-02
2.669103203992915785e-01,-1.525717128002829562e-02
2.687506037675092552e-01,-1.525717128002829562e-02
2.705908871357269319e-01,-1.525717128002829562e-02
2.724311705039446085e-01,-1.525717128002829562e-02
2.742714538721622852e-01,-1.525717128002829562e-02
2.761117372403799619e-01,-1.525717128002829562e-02
2.779520206085976386e-01,-1.525717128002829562e-02
2.797923039768153153e-01,-1.525717128002829562e-02
2.816325873450329920e-01,-1.525717128002829562e-02
2.834728707132506687e-01,-1.525717128002829562e-02
2.853131540814683453e-01,-1.525717128002829562e-02
2.871534374496860220e-01,-1.525717128002829562e-02
2.889937208179037542e-01,-1.525717128002829562e-02
2.908340041861213754e-01,-1.525717128002829562e-02
2.926742875543391076e-01,-1.525717128002829562e-02
2.945145709225567288e-01,-1.525717128002829562e-02
2.963548542907744610e-01,-1.525717128002829562e-02
2.981951376589920821e-01,-1.525717128002829562e-02
3.000354210272098143e-01,-1.525717128002829562e-02
3.018757043954274355e-01,-1.525717128002829562e-02
3.037159877636451677e-01,-1.525717128002829562e-02
3.055562711318627889e-01,-1.525717128002829562e-02
3.073965545000805211e-01,-1.525717128002829562e-02
3.092368378682981422e-01,-1.525717128002829562e-02
3.110771212365158744e-01,-1.525717128002829562e-02
3.129174046047334956e-01,-1.525717128002829562e-02
3.147576879729512278e-01,-1.525717128002829562e-02
3.165979713411688490e-01,-1.525717128002829562e-02
3.184382547093865812e-01,-1.525717128002829562e-02
3.202785380776042579e-01,-1.525717128002829562e-02
3.221188214458219345e-01,-1.525717128002829562e-02
3.239591048140396112e-01,-1.525717128002829562e-02
3.257993881822572879e-01,-1.525717128002829562e-02
3.276396715504749646e-01,-1.525717128002829562e-02
3.294799549186926413e-01,-5.432554235552419612e-03
3.313202382869103180e-01,1.043722712842624304e-03
3.331605216551279947e-01,1.054046511022956566e-02
3.350008050233456713e-01,1.425768642282599502e-02
3.368410883915633480e-01,8.336617077883891336e-03
3.386813717597810247e-01,-4.294572375625319016e-03
3.405216551279987014e-01,-4.294572375625319016e-03
3.423619384962163781e-01,-4.294572375625319016e-03
3.442022218644340548e-01,-4.294572375625319016e-03
3.460425052326517315e-01,-4.294572375625319016e-03
3.478827886008694081e-01,-4.294572375625319016e-03
3.497230719690870848e-01,-4.294572375625319016e-03
3.515633553373047615e-01,-4.294572375625319016e-03
3.534036387055224382e-01,-4.294572375625319016e-03
3.552439220737401149e-01,-4.294572375625319016e-03
3.570842054419577916e-01,-4.294572375625319016e-03
3.589244888101754682e-01,-4.294572375625319016e-03
3.607647721783931449e-01,-4.294572375625319016e-03
3.626050555466108216e-01,-4.294572375625319016e-03
3.644453389148284983e-01,-4.294572375625319016e-03
3.662856222830461750e-01,5.819496246863495315e-04
3.681259056512638517e-01,1.346572235252414297e-02
3.699661890194815284e-01,1.791115252024037471e-02
3.718064723876992050e-01,7.239280918287950735e-03
3.736467557559169372e-01,1.617891876569711122e-03
3.754870391241346139e-01,1.104284208243578577e-04
3.773273224923522906e-01,1.921197690299804219e-03
3.791676058605699673e-01,7.147656775506509332e-03
3.810078892287876440e-01,1.479413005598100711e-02
3.828481725970053207e-01,2.280296254380977106e-02
3.846884559652229973e-01,1.961020850133458199e-02
3.865287393334406740e-01,9.005948941218325232e-03
3.883690227016583507e-01,-3.594429698667089140e-03
3.902093060698760274e-01,-3.594429698667089140e-03
3.920495894380937041e-01,9.666340765845214005e-05
3.938898728063113808e-01,6.953176577934865044e-03
3.957301561745290575e-01,1.245570811346022148e-02
3.975704395427467341e-01,1.983229257887201072e-02
3.994107229109644108e-01,3.404716975460098105e-02
4.012510062791820875e-01,5.175837323319917166e-02
4.030912896473997642e-01,7.615369918010790606e-02
4.049315730156174409e-01,1.072596532682932868e-01
4.067718563838351176e-01,1.449532106145903498e-01
4.086121397520527943e-01,1.846217337871383091e-01
4.104524231202704709e-01,2.114218020073554416e-01
4.122927064884881476e-01,2.267049482670624172e-01
4.141329898567058243e-01,2.336346542592548647e-01
4.159732732249235010e-01,2.318327300852521256e-01
4.178135565931411777e-01,2.140120858584575736e-01
4.196538399613588544e-01,1.914208033105000706e-01
4.214941233295765310e-01,1.714767102696288237e-01
4.233344066977942077e-01,1.494453740719108581e-01
4.251746900660118844e-01,1.187273155045297235e-01
4.270149734342295611e-01,8.513708346648003744e-02
4.288552568024472378e-01,4.931969374979544574e-02
4.306955401706649145e-01,1.140225884681835174e-02
4.325358235388825912e-01,-2.204779661982555344e-02
4.343761069071002678e-01,-2.204779661982555344e-02
4.362163902753179445e-01,-2.204779661982555344e-02
4.380566736435356212e-01,-2.204779661982555344e-02
4.398969570117532979e-01,-2.204779661982555344e-02
4.417372403799710301e-01,-2.204779661982555344e-02
4.435775237481887068e-01,-2.204779661982555344e-02
4.454178071164063835e-01,-2.204779661982555344e-02
4.472580904846240601e-01,-2.204779661982555344e-02
4.490983738528417368e-01,-2.204779661982555344e-02
4.509386572210594135e-01,-2.204779661982555344e-02
4.527789405892770902e-01,-2.204779661982555344e-02
4.546192239574947669e-01,-2.204779661982555344e-02
4.564595073257124436e-01,-2.204779661982555344e-02
4.582997906939301203e-01,-2.204779661982555344e-02
4.601400740621477969e-01,-2.204779661982555344e-02
4.619803574303654736e-01,-2.204779661982555344e-02
4.638206407985831503e-01,-2.204779661982555344e-02
4.656609241668008270e-01,-2.204779661982555344e-02
4.675012075350185037e-01,-2.204779661982555344e-02
4.693414909032361804e-01,-2.204779661982555344e-02
4.711817742714538571e-01,-2.204779661982555344e-02
4.730220576396715337e-01,-2.204779661982555344e-02
4.748623410078892104e-01,-2.204779661982555344e-02
4.767026243761068871e-01,-2.204779661982555344e-02
4.785429077443245638e-01,-2.204779661982555344e-02
4.803831911125422405e-01,-2.204779661982555344e-02
4.822234744807599172e-01,-2.204779661982555344e-02
4.840637578489775938e-01,-2.204779661982555344e-02
4.859040412171952705e-01,-2.204779661982555344e-02
4.877443245854129472e-01,-2.204779661982555344e-02
4.895846079536306239e-01,-2.204779661982555344e-02
4.914248913218483006e-01,-2.204779661982555344e-02
4.932651746900659773e-01,-2.204779661982555344e-02
4.951054580582836540e-01,-2.204779661982555344e-02
4.969457414265013306e-01,-2.204779661982555344e-02
4.987860247947190073e-01,-2.204779661982555344e-02
5.006263081629367395e-01,-2.204779661982555344e-02
5.024665915311543607e-01,-2.204779661982555344e-02
5.043068748993719819e-01,-2.204779661982555344e-02
5.061471582675897141e-01,-2.204779661982555344e-02
5.079874416358074463e-01,-2.204779661982555344e-02
5.098277250040250674e-01,-2.204779661982555344e-02
5.116680083722427996e-01,-2.204779661982555344e-02
5.135082917404605318e-01,-2.204779661982555344e-02
5.153485751086781530e-01,-2.204779661982555344e-02
5.171888584768957742e-01,-2.204779661982555344e-02
5.190291418451135064e-01,-2.204779661982555344e-02
5.208694252133312386e-01,-2.204779661982555344e-02
5.227097085815488597e-01,-2.204779661982555344e-02
5.245499919497664809e-01,-2.204779661982555344e-02
5.263902753179842131e-01,-2.204779661982555344e-02
5.282305586862019453e-01,-2.204779661982555344e-02
5.300708420544195665e-01,-2.204779661982555344e-02
5.319111254226371877e-01,-2.204779661982555344e-02
5.337514087908549199e-01,-2.204779661982555344e-02
5.355916921590726520e-01,-2.204779661982555344e-02
5.374319755272902732e-01,-2.204779661982555344e-02
5.392722588955078944e-01,-2.204779661982555344e-02
5.411125422637256266e-01,-2.204779661982555344e-02
5.429528256319433588e-01,-2.204779661982555344e-02
5.447931090001609800e-01,-2.204779661982555344e-02
5.466333923683786011e-01,-2.000120190991990302e-02
5.484736757365963333e-01,-1.091230609804042873e-03
5.503139591048140655e-01,2.079339743251919573e-02
5.521542424730316867e-01,5.196439698162323706e-02
5.539945258412493079e-01,8.415879878411652859e-02
5.558348092094670401e-01,1.032849223002058475e-01
5.576750925776847723e-01,9.644121743228878385e-02
5.595153759459023934e-01,7.505978891687910270e-02
5.613556593141200146e-01,4.515837639048556063e-02
5.631959426823377468e-01,1.177817944919993219e-02
5.650362260505554790e-01,-2.528449572336305060e-02
5.668765094187731002e-01,-2.528449572336305060e-02
5.687167927869907214e-01,-2.528449572336305060e-02
5.705570761552085646e-01,-2.528449572336305060e-02
5.723973595234261857e-01,-2.528449572336305060e-02
5.742376428916438069e-01,-2.528449572336305060e-02
5.760779262598614281e-01,-2.528449572336305060e-02
5.779182096280792713e-01,-2.528449572336305060e-02
5.797584929962968925e-01,-2.528449572336305060e-02
5.815987763645145137e-01,-2.528449572336305060e-02
5.834390597327321348e-01,-2.528449572336305060e-02
5.852793431009499781e-01,-2.528449572336305060e-02
5.871196264691675992e-01,-2.528449572336305060e-02
5.889599098373852204e-01,-2.528449572336305060e-02
5.908001932056028416e-01,-2.528449572336305060e-02
5.926404765738206848e-01,-2.528449572336305060e-02
5.944807599420383060e-01,-2.528449572336305060e-02
5.963210433102559271e-01,-2.528449572336305060e-02
5.981613266784735483e-01,-2.528449572336305060e-02
6.000016100466913915e-01,-2.528449572336305060e-02
6.018418934149090127e-01,-2.528449572336305060e-02
6.036821767831266339e-01,-2.528449572336305060e-02
6.055224601513442551e-01,-2.528449572336305060e-02
6.073627435195620983e-01,-2.528449572336305060e-02
6.092030268877797194e-01,-2.528449572336305060e-02
6.110433102559973406e-01,-2.528449572336305060e-02
6.128835936242151838e-01,-2.528449572336305060e-02
6.147238769924328050e-01,-2.528449572336305060e-02
6.165641603606504262e-01,-2.528449572336305060e-02
6.184044437288680474e-01,-2.528449572336305060e-02
6.202447270970858906e-01,-2.528449572336305060e-02
6.220850104653035118e-01,-2.528449572336305060e-02
6.239252938335211329e-01,-2.528449572336305060e-02
6.257655772017387541e-01,-2.528449572336305060e-02
6.276058605699565973e-01,-2.528449572336305060e-02
6.294461439381742185e-01,-2.528449572336305060e-02
6.312864273063918397e-01,-2.528449572336305060e-02
6.331267106746094608e-01,-2.528449572336305060e-02
6.349669940428273041e-01,-2.528449572336305060e-02
6.368072774110449252e-01,-2.528449572336305060e-02
6.386475607792625464e-01,-2.528449572336305060e-02
6.404878441474801676e-01,-2.528449572336305060e-02
6.423281275156980108e-01,-2.528449572336305060e-02
6.441684108839156320e-01,-2.528449572336305060e-02
6.460086942521332531e-01,-2.528449572336305060e-02
6.478489776203508743e-01,-2.528449572336305060e-02
6.496892609885687175e-01,-2.528449572336305060e-02
6.515295443567863387e-01,-2.528449572336305060e-02
6.533698277250039599e-01,-2.528449572336305060e-02
6.552101110932215811e-01,-2.528449572336305060e-02
6.570503944614394243e-01,-2.528449572336305060e-02
6.588906778296570455e-01,-2.528449572336305060e-02
6.607309611978746666e-01,-2.528449572336305060e-02
6.625712445660922878e-01,-2.528449572336305060e-02
6.644115279343101310e-01,-2.528449572336305060e-02
6.662518113025277522e-01,-2.528449572336305060e-02
6.680920946707453734e-01,-2.528449572336305060e-02
6.699323780389629945e-01,-2.528449572336305060e-02
6.717726614071808378e-01,-2.528449572336305060e-02
6.736129447753984589e-01,-2.528449572336305060e-02
6.754532281436160801e-01,-2.528449572336305060e-02
6.772935115118339233e-01,-2.528449572336305060e-02
6.791337948800515445e-01,-2.528449572336305060e-02
6.809740782482691657e-01,-2.528449572336305060e-02
6.828143616164867868e-01,-2.528449572336305060e-02
6.846546449847046301e-01,-2.528449572336305060e-02
6.864949283529222512e-01,-2.528449572336305060e-02
6.883352117211398724e-01,-2.528449572336305060e-02
6.901754950893574936e-01,-2.528449572336305060e-02
6.920157784575753368e-01,-2.528449572336305060e-02
6.938560618257929580e-01,-2.528449572336305060e-02
6.956963451940105791e-01,-2.528449572336305060e-02
6.975366285622282003e-01,-2.528449572336305060e-02
6.993769119304460435e-01,-2.528449572336305060e-02
7.012171952986636647e-01,-2.528449572336305060e-02
7.030574786668812859e-01,-2.528449572336305060e-02
7.048977620350989071e-01,-2.528449572336305060e-02
7.067380454033167503e-01,-2.528449572336305060e-02
7.085783287715343715e-01,-2.528449572336305060e-02
7.104186121397519926e-01,-2.528449572336305060e-02
7.122588955079696138e-01,-2.528449572336305060e-02
7.140991788761874570e-01,-2.528449572336305060e-02
7.159394622444050782e-01,-2.528449572336305060e-02
7.177797456126226994e-01,-2.528449572336305060e-02
7.196200289808403205e-01,-2.528449572336305060e-02
7.214603123490581638e-01,-2.528449572336305060e-02
7.233005957172757849e-01,-2.528449572336305060e-02
7.251408790854934061e-01,-2.528449572336305060e-02
7.269811624537110273e-01,-2.528449572336305060e-02
7.288214458219288705e-01,-2.528449572336305060e-02
7.306617291901464917e-01,-2.528449572336305060e-02
7.325020125583641128e-01,-2.528449572336305060e-02
7.343422959265817340e-01,-2.528449572336305060e-02
7.361825792947995772e-01,-2.528449572336305060e-02
7.380228626630171984e-01,-2.528449572336305060e-02
7.398631460312348196e-01,-2.528449572336305060e-02
7.417034293994524408e-01,-2.528449572336305060e-02
7.435437127676702840e-01,-2.528449572336305060e-02
7.453839961358879052e-01,-2.528449572336305060e-02
7.472242795041055263e-01,-2.528449572336305060e-02
7.490645628723233695e-01,-2.528449572336305060e-02
7.509048462405409907e-01,-2.528449572336305060e-02
7.527451296087586119e-01,-2.223956927155584795e-02
7.545854129769762331e-01,-1.065867828110847980e-03
7.564256963451940763e-01,1.761568158757729000e-02
7.582659797134116975e-01,3.344934888686258018e-02
7.601062630816293186e-01,4.708762187676226313e-02
7.619465464498469398e-01,5.851902039515431003e-02
7.637868298180647830e-01,6.256636575142043855e-02
7.656271131862824042e-01,5.480887463053147474e-02
7.674673965545000254e-01,3.650836256315014711e-02
7.693076799227176465e-01,1.592067949429979562e-02
7.711479632909354898e-01,-3.279413955505234950e-03
7.729882466591531109e-01,-3.279413955505234950e-03
7.748285300273707321e-01,-3.279413955505234950e-03
7.766688133955883533e-01,-3.279413955505234950e-03
